abstract_i,abstract_j,cosine_similarity
0,1,0.491803
0,2,0.206907
0,3,0.550627
0,4,0.288105
0,5,0.259811
0,6,0.31805
0,7,0.496583
0,8,0.720155
0,9,0.371858
0,10,0.830324
0,11,0.405439
0,12,0.386798
0,13,0.375237
0,14,0.571251
0,15,0.423362
0,16,0.369521
0,17,0.645762
0,18,0.474268
0,19,0.161179
0,20,0.439903
0,21,0.451908
0,22,0.372187
0,23,0.059598
0,24,0.427408
0,25,0.459201
0,26,0.430393
0,27,0.362638
0,28,0.463933
0,29,0.244187
0,30,0.574707
0,31,0.520916
0,32,0.314929
0,33,0.441136
0,34,0.365516
1,2,0.190185
1,3,0.2839
1,4,0.207287
1,5,0.349338
1,6,0.272836
1,7,0.515389
1,8,0.386351
1,9,0.352156
1,10,0.449743
1,11,0.384995
1,12,0.387657
1,13,0.356549
1,14,0.329863
1,15,0.446449
1,16,0.275461
1,17,0.324043
1,18,0.332082
1,19,0.171008
1,20,0.363727
1,21,0.390633
1,22,0.393752
1,23,0.180137
1,24,0.501616
1,25,0.391877
1,26,0.389448
1,27,0.360646
1,28,0.369485
1,29,0.200281
1,30,0.319841
1,31,0.421206
1,32,0.363328
1,33,0.386922
1,34,0.356591
2,3,0.152604
2,4,0.043702
2,5,0.1513
2,6,0.108466
2,7,0.092786
2,8,0.111193
2,9,0.043543
2,10,0.235733
2,11,0.042905
2,12,0.051414
2,13,0.066222
2,14,0.254193
2,15,0.221194
2,16,0.09577
2,17,0.142489
2,18,0.131008
2,19,0.025597
2,20,0.045342
2,21,0.040392
2,22,0.080974
2,23,0.123579
2,24,0.062722
2,25,0.138767
2,26,0.042244
2,27,0.079252
2,28,0.110353
2,29,0.103426
2,30,0.13874
2,31,0.107233
2,32,0.040691
2,33,0.085951
2,34,0.089073
3,4,0.21988
3,5,0.408785
3,6,0.283691
3,7,0.376176
3,8,0.735366
3,9,0.347325
3,10,0.641436
3,11,0.339038
3,12,0.349176
3,13,0.350328
3,14,0.774582
3,15,0.389407
3,16,0.508548
3,17,0.682418
3,18,0.552784
3,19,0.149728
3,20,0.352931
3,21,0.268622
3,22,0.259208
3,23,0.20962
3,24,0.413339
3,25,0.297249
3,26,0.335329
3,27,0.309969
3,28,0.326892
3,29,0.305991
3,30,0.663586
3,31,0.391149
3,32,0.278984
3,33,0.328447
3,34,0.300703
4,5,0.101487
4,6,0.530845
4,7,0.458441
4,8,0.396524
4,9,0.279114
4,10,0.272813
4,11,0.158298
4,12,0.200464
4,13,0.197434
4,14,0.215757
4,15,0.192436
4,16,0.209794
4,17,0.234329
4,18,0.23488
4,19,0.123307
4,20,0.185299
4,21,0.588042
4,22,0.311729
4,23,0.102876
4,24,0.172333
4,25,0.285179
4,26,0.197423
4,27,0.171508
4,28,0.374104
4,29,0.171677
4,30,0.284988
4,31,0.395546
4,32,0.140137
4,33,0.696773
4,34,0.501492
5,6,0.222775
5,7,0.373096
5,8,0.256248
5,9,0.586682
5,10,0.216453
5,11,0.53041
5,12,0.501114
5,13,0.518545
5,14,0.332166
5,15,0.409274
5,16,0.204101
5,17,0.191075
5,18,0.27138
5,19,0.605134
5,20,0.505399
5,21,0.175171
5,22,0.224867
5,23,0.54414
5,24,0.550235
5,25,0.168459
5,26,0.500644
5,27,0.59438
5,28,0.371236
5,29,0.480924
5,30,0.228041
5,31,0.27702
5,32,0.587753
5,33,0.221357
5,34,0.225053
6,7,0.429312
6,8,0.397876
6,9,0.334137
6,10,0.266707
6,11,0.323202
6,12,0.373845
6,13,0.349804
6,14,0.24083
6,15,0.273992
6,16,0.212206
6,17,0.28574
6,18,0.260128
6,19,0.218668
6,20,0.341298
6,21,0.472745
6,22,0.383054
6,23,0.183174
6,24,0.286433
6,25,0.2359
6,26,0.278243
6,27,0.262819
6,28,0.416138
6,29,0.250554
6,30,0.266432
6,31,0.394104
6,32,0.302914
6,33,0.576918
6,34,0.791797
7,8,0.5067
7,9,0.584526
7,10,0.502523
7,11,0.535615
7,12,0.558975
7,13,0.565508
7,14,0.354336
7,15,0.420741
7,16,0.356464
7,17,0.468885
7,18,0.479949
7,19,0.222694
7,20,0.621519
7,21,0.575246
7,22,0.616743
7,23,0.168883
7,24,0.605216
7,25,0.484191
7,26,0.590822
7,27,0.534865
7,28,0.761705
7,29,0.299742
7,30,0.385295
7,31,0.661962
7,32,0.472141
7,33,0.55344
7,34,0.566472
8,9,0.448174
8,10,0.797305
8,11,0.413536
8,12,0.452519
8,13,0.454037
8,14,0.73597
8,15,0.389129
8,16,0.605361
8,17,0.827944
8,18,0.666361
8,19,0.185562
8,20,0.462603
8,21,0.517883
8,22,0.364694
8,23,0.088037
8,24,0.445887
8,25,0.460386
8,26,0.468634
8,27,0.413759
8,28,0.407947
8,29,0.295443
8,30,0.767636
8,31,0.510326
8,32,0.357813
8,33,0.514378
8,34,0.502466
9,10,0.337026
9,11,0.687724
9,12,0.847502
9,13,0.787502
9,14,0.300193
9,15,0.496617
9,16,0.295813
9,17,0.330806
9,18,0.376204
9,19,0.572495
9,20,0.720669
9,21,0.40271
9,22,0.432022
9,23,0.26235
9,24,0.665545
9,25,0.397855
9,26,0.800627
9,27,0.840658
9,28,0.444034
9,29,0.509054
9,30,0.325616
9,31,0.452293
9,32,0.829032
9,33,0.394613
9,34,0.463606
10,11,0.363902
10,12,0.36075
10,13,0.322073
10,14,0.689053
10,15,0.373301
10,16,0.459313
10,17,0.817813
10,18,0.543262
10,19,0.111887
10,20,0.394889
10,21,0.429632
10,22,0.411212
10,23,-0.004485
10,24,0.382949
10,25,0.501287
10,26,0.402432
10,27,0.325605
10,28,0.408798
10,29,0.23213
10,30,0.678108
10,31,0.551318
10,32,0.243372
10,33,0.413231
10,34,0.360283
11,12,0.746866
11,13,0.674174
11,14,0.285155
11,15,0.549125
11,16,0.270332
11,17,0.343029
11,18,0.3707
11,19,0.587967
11,20,0.699551
11,21,0.476742
11,22,0.426315
11,23,0.146005
11,24,0.715192
11,25,0.411424
11,26,0.74016
11,27,0.665486
11,28,0.423703
11,29,0.303338
11,30,0.327963
11,31,0.483397
11,32,0.729743
11,33,0.360701
11,34,0.46536
12,13,0.825077
12,14,0.283071
12,15,0.521792
12,16,0.307654
12,17,0.356128
12,18,0.416851
12,19,0.49564
12,20,0.829109
12,21,0.464219
12,22,0.418865
12,23,0.149518
12,24,0.683939
12,25,0.415973
12,26,0.83894
12,27,0.838171
12,28,0.445668
12,29,0.418084
12,30,0.329926
12,31,0.47598
12,32,0.843747
12,33,0.382841
12,34,0.484061
13,14,0.326275
13,15,0.471006
13,16,0.272042
13,17,0.328345
13,18,0.363018
13,19,0.413007
13,20,0.760875
13,21,0.435783
13,22,0.415661
13,23,0.267889
13,24,0.678467
13,25,0.36154
13,26,0.794495
13,27,0.836166
13,28,0.453443
13,29,0.480761
13,30,0.309319
13,31,0.434435
13,32,0.75804
13,33,0.381626
13,34,0.483446
14,15,0.373038
14,16,0.57399
14,17,0.693068
14,18,0.598928
14,19,0.108369
14,20,0.291729
14,21,0.205361
14,22,0.266496
14,23,0.188937
14,24,0.325124
14,25,0.285677
14,26,0.339479
14,27,0.302354
14,28,0.325583
14,29,0.24125
14,30,0.695132
14,31,0.374479
14,32,0.244549
14,33,0.30581
14,34,0.239794
15,16,0.380769
15,17,0.364787
15,18,0.45775
15,19,0.26489
15,20,0.521884
15,21,0.384828
15,22,0.362651
15,23,0.245002
15,24,0.667827
15,25,0.354876
15,26,0.495513
15,27,0.462195
15,28,0.369253
15,29,0.32302
15,30,0.403172
15,31,0.401994
15,32,0.499326
15,33,0.303839
15,34,0.371529
16,17,0.628902
16,18,0.833307
16,19,0.092977
16,20,0.333061
16,21,0.252259
16,22,0.355528
16,23,0.040676
16,24,0.354134
16,25,0.471776
16,26,0.292187
16,27,0.266942
16,28,0.262202
16,29,0.203301
16,30,0.751995
16,31,0.420189
16,32,0.26328
16,33,0.336287
16,34,0.27264
17,18,0.722511
17,19,0.102712
17,20,0.381896
17,21,0.381235
17,22,0.437909
17,23,-0.00357
17,24,0.39193
17,25,0.542988
17,26,0.347931
17,27,0.319092
17,28,0.337246
17,29,0.189506
17,30,0.771105
17,31,0.511292
17,32,0.278738
17,33,0.402349
17,34,0.367896
18,19,0.142403
18,20,0.426554
18,21,0.315461
18,22,0.413119
18,23,0.05852
18,24,0.445673
18,25,0.486036
18,26,0.392535
18,27,0.38137
18,28,0.357954
18,29,0.251996
18,30,0.696498
18,31,0.496829
18,32,0.357746
18,33,0.358294
18,34,0.326956
19,20,0.416776
19,21,0.214004
19,22,0.198119
19,23,0.183189
19,24,0.404964
19,25,0.176831
19,26,0.449365
19,27,0.527943
19,28,0.217617
19,29,0.331748
19,30,0.153384
19,31,0.146012
19,32,0.606863
19,33,0.165852
19,34,0.25667
20,21,0.422737
20,22,0.466144
20,23,0.218821
20,24,0.700259
20,25,0.406902
20,26,0.83558
20,27,0.769328
20,28,0.543226
20,29,0.479422
20,30,0.342319
20,31,0.52133
20,32,0.746995
20,33,0.380003
20,34,0.468494
21,22,0.419802
21,23,0.046383
21,24,0.406295
21,25,0.43825
21,26,0.404524
21,27,0.341911
21,28,0.38868
21,29,0.170737
21,30,0.399221
21,31,0.496624
21,32,0.319943
21,33,0.668169
21,34,0.626446
22,23,0.041347
22,24,0.427919
22,25,0.663993
22,26,0.442728
22,27,0.400033
22,28,0.492982
22,29,0.241994
22,30,0.307061
22,31,0.553344
22,32,0.345233
22,33,0.483708
22,34,0.491875
23,24,0.294625
23,25,-0.018259
23,26,0.231089
23,27,0.242289
23,28,0.203723
23,29,0.262419
23,30,0.060075
23,31,0.091667
23,32,0.271084
23,33,0.098608
23,34,0.176021
24,25,0.383094
24,26,0.717857
24,27,0.639513
24,28,0.52218
24,29,0.366197
24,30,0.352426
24,31,0.500484
24,32,0.665179
24,33,0.342558
24,34,0.425149
25,26,0.395025
25,27,0.366647
25,28,0.359206
25,29,0.190752
25,30,0.43613
25,31,0.561272
25,32,0.323093
25,33,0.5259
25,34,0.352913
26,27,0.861737
26,28,0.500871
26,29,0.433508
26,30,0.315289
26,31,0.492486
26,32,0.771179
26,33,0.365523
26,34,0.430348
27,28,0.445803
27,29,0.463662
27,30,0.297613
27,31,0.415181
27,32,0.851834
27,33,0.327478
27,34,0.377395
28,29,0.318069
28,30,0.245628
28,31,0.586777
28,32,0.364193
28,33,0.460026
28,34,0.417495
29,30,0.183041
29,31,0.229624
29,32,0.399797
29,33,0.230735
29,34,0.196318
30,31,0.432342
30,32,0.286016
30,33,0.358303
30,34,0.354208
31,32,0.344147
31,33,0.54517
31,34,0.49361
32,33,0.30885
32,34,0.399119
33,34,0.567848
